#### Frequency Histogram
# upper limit #1
2548.91480005105 0.00197355979569759
2644.7374096672 0.00276705031895864
2740.56001928336 0.00345310428847473
2836.38262889951 0.00408693643088597
2932.20523851567 0.00582829734996299
3028.02784813183 0.00744125347158582
3123.85045774798 0.00948445626683162
3219.67306736414 0.0124136751299192
3315.49567698029 0.0147756537377177
3411.31828659645 0.0193629401855821
3507.1408962126 0.0220538845821798
3602.96350582876 0.0282111581665164
3698.78611544491 0.0351014486913766
3794.60872506107 0.0423039985272524
3890.43133467722 0.0498332759574551
3986.25394429338 0.057698326268875
4082.07655390953 0.0687627248909974
4177.89916352569 0.0801285831403315
4273.72177314184 0.0962186137702155
4369.544382758 0.109787756830353
4465.36699237415 0.124463784914958
4561.18960199031 0.140241318365937
4657.01221160646 0.161810370688085
4752.83482122262 0.184035851150668
4848.65743083878 0.205764153482912
4944.48004045493 0.230098856464981
5040.30265007109 0.25471546363784
5136.12525968724 0.278473372355168
5231.9478693034 0.2991004550002
5327.77047891955 0.320812467284372
5423.59308853571 0.34550032270669
5519.41569815186 0.374275635727866
5615.23830776802 0.398435966807599
5711.06091738417 0.421781717246881
5806.88352700033 0.444695611170739
5902.70613661648 0.470924444587231
5998.52874623264 0.49745758447464
